timestamp,value
0,4.864939713252818
1,4.8650715316296305
2,4.832716608209751
3,4.8337887931029035
4,4.838057599559892
5,4.859181786785115
6,4.846222445768737
7,4.858430670036824
8,4.8722883104023715
9,4.874013474177516
10,4.955335270471834
11,5.117940485080884
12,5.267652791946374
13,5.30217020916964
14,5.024311460540533
15,4.789790987862984
16,4.669618878703524
17,4.758036484661161
18,4.818457922638506
19,4.851395636653784
20,4.880872697462124
21,4.87650233940712
22,4.87938073575329
23,4.92574546174293
24,4.974715607650958
25,5.028072344367252
26,5.107997143898368
27,5.131322971432925
28,5.082515306337341
29,5.019333067818777
30,4.99599028020623
31,4.99678742577593
32,4.986496064424395
33,4.980338143095116
34,4.968566077987194
35,4.932022537790036
36,4.894815482748691
37,4.87687139181997
38,4.862716945753832
39,4.839089765656856
40,4.889869260201268
41,4.837303969748528
42,5.140595480177983
43,5.170667443476531
44,5.120518472432423
45,5.087445317832302
46,5.105824570612356
47,5.094123904279961
48,5.078772561393506
49,5.103393493880827
50,5.110620250958577
51,5.116398918302942
52,5.109243869378907
53,5.127616851198363
54,5.180536652963476
55,5.361475078661869
56,5.5208827632369735
57,5.536705712246333
58,5.270886827488927
59,5.029859248061329
60,4.9071862300701925
61,5.015551306136102
62,5.051922421620788
63,5.098094403340397
64,5.10222648056213
65,5.11287747398049
66,5.122306745830281
67,5.173900046619716
68,5.222082327617899
69,5.288253411700325
70,5.351361613582553
71,5.363159726774985
72,5.325590646966773
73,5.27566461380156
74,5.2408266073638226
75,5.254447698590979
76,5.234989190411833
77,5.246931948971174
78,5.213958394465161
79,5.199632536386108
80,5.164497930708962
81,5.141734581221944
82,5.088150403675324
83,5.083558706067351
84,5.149976078859908
85,5.115008926039378
86,5.171319584422773
87,5.266242218689027
88,5.209551611677562
89,5.184588525524532
90,5.184226920236541
91,5.182258851579546
92,5.186995854771869
93,5.192941801704509
94,5.201176170203658
95,5.179701362230557
96,5.193978189949285
97,5.212851319406184
98,5.309531838031909
99,5.483094075511932
100,5.632349801038552
101,5.662038658289601
102,5.379960493739681
103,5.109157468574643
104,5.012999129611693
105,5.1066331845368085
106,5.147172427525451
107,5.1939231370522485
108,5.210979693294979
109,5.22247480021221
110,5.231505275936984
111,5.275162790470292
112,5.331228957962361
113,5.392737490760298
114,5.455082221108739
115,5.465319957174383
116,5.446947614364651
117,5.371906354988996
118,5.3609090022327495
119,5.32739518010852
120,5.342667914912157
121,5.3464678582039875
122,5.333041791683067
123,5.268637657274785
124,5.249470651887079
125,5.2186011067326215
126,5.189700563552814
127,5.209889250208971
128,5.209981536225585
129,5.146025457071758
130,5.075106344813944
131,5.104916834430715
132,5.072522229797696
133,5.0455134985832535
134,5.028722741526785
135,5.022620381393204
136,5.054286487759431
137,5.052266307263869
138,5.055205549690562
139,5.058751194696512
140,5.048049542154891
141,5.044168030914062
142,5.1608633406398905
143,5.3346246615551784
144,5.482760358821109
145,5.481822690180176
146,5.1983536860442445
147,4.9782609613549225
148,4.852590385355037
149,4.939518780264406
150,4.993962431001544
151,5.054594669883376
152,5.061606920160602
153,5.079712485883399
154,5.078076795606252
155,5.146146440401245
156,5.154773886126025
157,5.232201327754535
158,5.311122524955028
159,5.312357498176346
160,5.278088085636607
161,5.221592704180934
162,5.187049389656861
163,5.182815676119995
164,5.186123464489064
165,5.1736294926246265
166,5.171341037225334
167,5.124384497782551
168,5.0987467743317225
169,5.078910680638489
170,5.066715949862595
171,5.055981129741154
172,5.0636564278308995
173,5.051725886201779
174,4.988755986791671
175,5.020320685871377
176,4.975834585710398
177,4.925682886543801
178,4.947170787609108
179,4.930558720131994
180,4.925231747895513
181,4.973541319490463
182,4.953279230607922
183,4.950169913013289
184,4.955915484719015
185,4.975642924902965
186,5.053305178313535
187,5.226188233255311
188,5.370350998516162
189,5.394462245474827
190,5.122138393584748
191,4.8934140015279946
192,4.774068537135866
193,4.849837309006113
194,4.917932405502087
195,4.958564869177152
196,4.9522181127156495
197,4.971001215032555
198,4.977094582662903
199,5.036034096501257
200,5.0659490595179655
201,5.147957415490023
202,5.177429068611676
203,5.207352289213086
204,5.194350197711925
205,5.138646634438084
206,5.08533676763066
207,5.082811343253065
208,5.070088148508172
209,5.090593173736157
210,5.062260120195032
211,5.0313626420585
212,5.014338419797567
213,4.98981516720781
214,4.955486531482603
215,4.947244878473397
216,4.9162829546626625
217,4.949103257010622
218,4.921464126867222
219,4.883217865748649
220,4.872486899103714
221,4.823964278339445
222,4.841475773170285
223,4.838502742511525
224,4.855736749009459
225,4.874747454146343
226,4.845363886285221
227,4.84291056773479
228,4.8570860661751585
229,4.8710922114563315
230,4.962676544335408
231,5.1242988626230614
232,5.2808831818500375
233,5.2856321964637685
234,5.020471256699506
235,4.802789826634876
236,4.694140428144503
237,4.742880224813501
238,4.81927987981978
239,4.852244778859957
240,4.8713579419069575
241,4.852371796229005
242,4.868473139177045
243,4.933590352332137
244,4.970087889930657
245,5.031067014946701
246,5.105400332240383
247,5.109654799979875
248,5.0908372343408885
249,5.000113890261398
250,5.012484768945941
251,4.990109845078759
252,4.991821444111451
253,4.98025541712977
254,4.967473255283799
255,4.9321256539938245
256,4.9022024926498355
257,4.884171320131961
258,4.864113054109898
259,4.8559736158699955
260,4.8894182439312015
261,4.822333223582406
262,5.138998388418541
263,5.165789981027654
264,5.106463392390709
265,5.110977855462349
266,5.082000119879352
267,5.091915071829786
268,5.099541262172953
269,5.099937321909064
270,5.094274736084418
271,5.1050279021226785
272,5.107418094626824
273,5.135228171990449
274,5.212989505176372
275,5.367349688754594
276,5.545387070863096
277,5.54704311090624
278,5.2563096070940665
279,5.024631155011462
280,4.910735213181076
281,5.002670457911402
282,5.072785588468707
283,5.080901906820492
284,5.114376201083248
285,5.125391025025405
286,5.114374535659493
287,5.1722497921007315
288,5.226979992758581
289,5.304003073581543
290,5.348759517513754
291,5.3458954383484265
292,5.331962720756133
293,5.276036594526261
294,5.255401303408685
295,5.2187766578571075
296,5.228180243252073
297,5.230269326633916
298,5.233575052593011
299,5.1744685395738035
300,5.144615561503649
301,5.119755264932875
302,5.094911730770334
303,5.09873053995924
304,5.132654370631806
305,5.127971381998806
306,5.153907228622816
307,5.2386822829918955
308,5.220580173919207
309,5.188923892889393
310,5.1898927610885055
311,5.182728376722702
312,5.2064485702569465
313,5.205909645092529
314,5.2014165659608755
315,5.1925274736571145
316,5.179131561722255
317,5.225232837115569
318,5.307451633018425
319,5.464569801317129
320,5.627632168228553
321,5.656717044666603
322,5.35844985751981
323,5.130168837890549
324,5.014373359819164
325,5.085525910255835
326,5.151439935208158
327,5.186173000489448
328,5.196325606755176
329,5.232748914756459
330,5.2194084985439435
331,5.264125259956086
332,5.330154255358658
333,5.414936094733211
334,5.460565699538006
335,5.46275047066827
336,5.418362710413548
337,5.369566948899344
338,5.346602201583547
339,5.346292398507584
340,5.317208461829767
341,5.321614597641769
342,5.3044396510344916
343,5.280909711003582
344,5.251431153053781
345,5.227166893070391
346,5.2069395726612555
347,5.188165965733473
348,5.218649387153898
349,5.131826326384458
350,5.059579110410564
351,5.1090967181394555
352,5.064438784446102
353,5.04082785621247
354,5.043120472793822
355,5.034757342171983
356,5.045824739354699
357,5.058042070016346
358,5.041733720844797
359,5.058591012950977
360,5.074087830746876
361,5.079256311011496
362,5.172093692308758
363,5.320132691620212
364,5.4794913750226355
365,5.489422476274811
366,5.227233362974794
367,4.993961525162681
368,4.856276733755929
369,4.936693476772806
370,5.005417430704707
371,5.0564155871479315
372,5.066540356989088
373,5.071042239747552
374,5.068787059797779
375,5.114931463461191
376,5.170755512990464
377,5.246248555457444
378,5.31891209014884
379,5.308509052506873
380,5.27742020426013
381,5.208588058178546
382,5.175824976081657
383,5.193125641060052
384,5.179369201696327
385,5.186796968328969
386,5.165352990779299
387,5.144454736710482
388,5.096905544392189
389,5.067054250821655
390,5.055933789184397
391,5.060439169980877
392,5.0584378407721164
393,5.032904070910717
394,5.006020724625488
395,5.022773270763352
396,4.978429092465461
397,4.951300429034962
398,4.940233673185345
399,4.9347005144255895
400,4.960079590734426
401,4.945632623761249
402,4.949679879633958
403,4.948724954425899
404,4.951563682030804
405,4.981662715164705
406,5.069221352383334
407,5.243376653451059
408,5.359778944684506
409,5.380130617363964
410,5.1162051468691505
411,4.8766619821308455
412,4.772354570375504
413,4.842810632978728
414,4.912466987359526
415,4.949191585480445
416,4.9543980177883515
417,4.982933521148352
418,4.973198540253579
419,5.036113501150156
420,5.062366542947193
421,5.1215361618032915
422,5.177521419805397
423,5.207637989947057
424,5.170870773977592
425,5.127085451576012
426,5.086891677217395
427,5.081540089388551
428,5.087261229672923
429,5.080133614593382
430,5.076426138847526
431,5.023175299797483
432,5.013449244203495
433,4.968700808741735
434,4.965350274581065
435,4.934385207596298
436,4.9161558865249235
437,4.933066278291066
438,4.902111329798364
439,4.890544984674161
440,4.877827614858109
441,4.848196184226873
442,4.8626842909451256
443,4.845262848484403
444,4.848209678777918
445,4.852229857435176
446,4.870226804133502
447,4.857941842226875
448,4.842939208738877
449,4.8939769222691085
450,4.960041852335816
451,5.119220707249069
452,5.281684571231521
453,5.266145386246281
454,5.010929220576483
455,4.794558026749113
456,4.664918274687531
457,4.759385770837633
458,4.8167068151896535
459,4.851824262551153
460,4.87975941813558
461,4.878578625195001
462,4.900180088075026
463,4.9430893886573335
464,5.0046953757872945
465,5.042110139974055
466,5.090827176785282
467,5.091644072128934
468,5.0907172837498775
469,5.028684982801506
470,4.9976941975659175
471,4.963230933722948
472,4.9746865049460185
473,4.969175542307497
474,4.951931220778693
475,4.936165184982634
476,4.89846000215078
477,4.888781135241289
478,4.8663692146518756
479,4.85304720628816
480,4.884378463873262
481,4.835717447883402
482,5.136168942574573
483,5.175382169099686
484,5.135021883681575
485,5.097649414821745
486,5.092752870061251
487,5.07355813596279
488,5.103997702598313
489,5.097311138133284
490,5.089053150316951
491,5.105302991734168
492,5.116528443136716
493,5.1285138220947575
494,5.207719678445359
495,5.376632940521054
496,5.520093998855275
497,5.199787261474958
498,5.128883459390074
499,5.2934278138777975
500,5.090985488397292
501,5.135477979931212
502,5.279861756489729
503,5.276890183889672
504,5.276355079154409
505,5.135315709889252
506,5.0923996624762555
507,5.1485027671639445
508,5.225947065060402
509,5.292646048322755
510,5.357140526797416
511,5.3791402823889705
512,5.321382886369736
513,5.258685601327003
514,5.2431343343096515
515,5.217151689440683
516,5.22394204857767
517,5.239659256911246
518,5.206262246535868
519,5.185865307814848
520,5.15013329147984
521,5.1011436650378394
522,5.1121983891718585
523,5.093107307923572
524,5.153143122034015
525,5.136944147513091
526,5.166254264404904
527,5.258021928576691
528,5.197309477975378
529,5.201767103373477
530,5.178910349311496
531,5.181676967860749
532,5.197578749620552
533,5.206920004933914
534,5.202334270040695
535,5.208054361473041
536,5.201145439005131
537,5.188138331219443
538,5.296869769586394
539,5.484111105020954
540,5.626602623725229
541,5.642726643774822
542,5.383226115461929
543,5.138679662810652
544,5.003398853412588
545,5.0916257399745275
546,5.161119705484476
547,5.173566798738862
548,5.217672002791717
549,5.21692446479744
550,5.23311602619097
551,5.271958897709615
552,5.3279633389866765
553,5.387426023797107
554,5.458433990972597
555,5.477914225297954
556,5.422957269286142
557,5.391163541031757
558,5.332707625905718
559,5.3359851513375665
560,5.3331713670749314
561,5.351199732997781
562,5.320085546000283
563,5.298595636339135
564,5.249792402656368
565,5.221450017992516
566,5.196582187535158
567,5.191643901655405
568,5.2121038200759955
569,5.154623691698697
570,5.069072113633487
571,5.116152989415101
572,5.051298010344836
573,5.050743736172777
574,5.040334778465048
575,5.038956679522031
576,5.060332270040384
577,5.073790081896437
578,5.034547523486248
579,5.041699039240784
580,5.057843428787029
581,5.07302194793717
582,5.143887024198221
583,5.340066926287677
584,5.471985830883444
585,5.1596608341130725
586,5.222123057919987
587,5.2412184237859485
588,5.109842986351473
589,5.225552732526323
590,5.059571308112609
591,5.0920865638091115
592,5.0466523308343465
593,5.061811706642649
594,5.075407680237777
595,5.1225435123950644
596,5.177156536830309
597,5.2460707905213555
598,5.306371208107511
599,5.294525880580022
600,5.2809109775613035
601,5.240137637557279
602,5.187739861932321
603,5.172541467038763
604,5.180381184498693
605,5.190284123374976
606,5.157098819450392
607,5.135324655990709
608,5.109979675727196
609,5.0830066323576215
610,5.067092726359491
611,5.052764305692271
612,5.055661312277288
613,5.041255639843478
614,4.995092525358991
615,5.001572609672191
616,4.977911740323627
617,4.9309355798663725
618,4.936985605652967
619,4.93242747659941
620,4.9627807876845775
621,4.968508251118716
622,4.959425053286028
623,4.958428876675737
624,4.955996925236028
625,4.967495529748899
626,5.046984496563138
627,5.242439547259004
628,5.392695513071413
629,5.379599203094387
630,5.115502307941716
631,4.869570816264297
632,4.780457481709041
633,4.8310522416243336
634,4.912101971530431
635,4.951746206303465
636,4.953363429083474
637,4.973999765646233
638,4.986529865800905
639,5.035969416940426
640,5.07083276554705
641,5.112738438378962
642,5.203272916180752
643,5.231116384063435
644,5.167213497580484
645,5.125519767735944
646,5.093466961226244
647,5.077700994243999
648,5.104766154005991
649,5.09046521230267
650,5.076135797777792
651,5.023396569097315
652,4.99558689453436
653,4.986949921154995
654,4.95076936588753
655,4.9624836647510415
656,4.9298319640426955
657,4.918311762487226
658,4.903991692714296
659,4.884757277516243
660,4.851024173494722
661,4.866418889105489
662,4.822606602976671
663,4.825013353178904
664,4.847609715008505
665,4.861254726924535
666,4.840004910952615
667,4.872442328208469
668,4.875821911513503
669,4.873518778670689
670,4.9507279949181315
671,5.112625961309655
672,5.273998386918996
673,5.276875833597187
674,5.023609167443336
675,4.781348219234873
676,4.668517460138144
677,4.76507298755271
678,4.8246363634164675
679,4.840899124499918
680,4.870557215284543
681,4.872207219565729
682,4.882871062334496
683,4.914329896182165
684,4.978887662999386
685,5.0280212861381814
686,5.07916343325236
687,5.104961119978172
688,5.067435581589473
689,5.028044838094532
690,4.988364728184358
691,4.970920359708868
692,4.981043681156854
693,4.998329527733487
694,4.9776945786378555
695,4.937918596476284
696,4.9134641173264555
697,4.872997081451987
698,4.863469309727988
699,4.867331024683539
700,4.897515184674986
701,4.8249248303580625
702,5.14107902617336
703,5.16806181589374
704,5.125359220023247
705,5.090559590293529
706,5.094580856685015
707,5.0911142018154685
708,5.096889592133696
709,5.109930056507499
710,5.07291866394503
711,5.092902120778775
712,5.1090199536758965
713,5.126286160440104
714,5.199025432997074
715,5.386960889100073
716,5.527877555710088
717,5.555900539184291
718,5.288159397278646
719,5.032110928763089
720,4.9092684702716145
721,5.004034084661378
722,5.06966541143437
723,5.097117633631289
724,5.124725090482202
725,5.129948835598436
726,5.149422656596407
727,5.177432815713611
728,5.224287035854782
729,5.273618436536922
730,5.349912033037344
731,5.359821339074776
732,5.33750983775149
733,5.275582742982826
734,5.254530479422004
735,5.230442213076494
736,5.226608284774557
737,5.241854972044842
738,5.215448091035682
739,5.181322256935315
740,5.141687247190919
741,5.12856830206274
742,5.105359939328984
743,5.083543750810367
744,5.136467878582337
745,5.125052012455817
746,5.167841285249885
747,5.239829696771717
748,5.224659363821087
749,5.190500308334105
750,5.18732014272535
751,5.190548586304169
752,5.1978794164636195
753,5.184808921687126
754,5.195063439728536
755,5.197358484199946
756,5.2039878504809876
757,5.226971575216387
758,5.30890641774198
759,5.486393475527085
760,5.64988688525189
761,5.64428199565865
762,5.373535397032548
763,5.119205894307988
764,5.001490177268385
765,5.082285810717613
766,5.173381157937016
767,5.191204756224468
768,5.219621797641126
769,5.214732044005267
770,5.234029606900216
771,5.270873549504124
772,5.316670835423762
773,5.408737840538189
774,5.454890320586075
775,5.460910450624527
776,5.440828435466361
777,5.366915705907145
778,5.350024358938527
779,5.332702063558238
780,5.336084944589173
781,5.312625439458886
782,5.316808441037747
783,5.280041053343805
784,5.245730880003586
785,5.2135483185997105
786,5.188588206806645
787,5.1860642173155265
788,5.2168417016139434
789,5.141738754320128
790,5.043055040130828
791,5.105059047717717
792,5.044492777400557
793,5.038809127450706
794,5.052522217995957
795,5.039719675817382
796,5.055042332014211
797,5.042214917470328
798,5.04096415095263
799,5.025410617536385
800,5.058725945050594
801,5.076997441205764
802,5.160192036055528
803,5.3355200007486285
804,5.482497976486571
805,5.491926544382299
806,5.224659619377399
807,4.9585851707163595
808,4.887252879584228
809,4.943068378646673
810,5.016280746303487
811,5.044609639609782
812,5.0545865036914694
813,5.061442911787358
814,5.0745836106141065
815,5.1243577686838115
816,5.184786823672207
817,5.233756371360834
818,5.2952153961794375
819,5.331835692761262
820,5.295007612672183
821,5.224762881370389
822,5.213043962485657
823,5.181835013195726
824,5.187979790441135
825,5.1999588732130375
826,5.173792034199652
827,5.118685170791722
828,5.101043778456824
829,5.087472505632739
830,5.046271424267487
831,5.041345570164675
832,5.038429688715436
833,5.056643460866584
834,4.999845688296495
835,5.011280973543696
836,4.970543661588047
837,4.924697683162313
838,4.931152682227825
839,4.958680988727682
840,4.955434322222044
841,4.9696989006386225
842,4.965992929054443
843,4.960130739127484
844,4.979218623771866
845,4.95786585607915
846,5.061151268992185
847,5.239465577281074
848,5.39155489036859
849,5.3943859264148895
850,5.114271676370895
851,4.875721262995538
852,4.772842180382547
853,4.8673771201979585
854,4.921982456520501
855,4.952286119114055
856,4.95007063647765
857,4.979322153534812
858,5.002490112702395
859,5.028739220507738
860,5.082204491919376
861,5.130953324075356
862,5.186591414627783
863,5.209366663515238
864,5.178833708667259
865,5.126912284135631
866,5.085606637581243
867,5.073243339391165
868,5.075067461808863
869,5.07643360775815
870,5.059073473117864
871,5.034791112854204
872,4.989077236009277
873,4.980921546021896
874,4.954327747277548
875,4.940329532681424
876,4.927467675879685
877,4.912537388746959
878,4.901595343869479
879,4.906944227330938
880,4.858586026228654
881,4.832594457098018
882,4.853923901799555
883,4.846017504664406
884,4.848870608644896
885,4.849413964070898
886,4.859787751026359
887,4.873688576797975
888,4.860593580543633
889,4.873190662920603
890,4.977405506639434
891,5.1258245312009105
892,5.275640740621021
893,5.28945163812412
894,5.027719765060754
895,4.788451574528191
896,4.665684457503289
897,4.741609007271829
898,4.84480076992438
899,4.845485385911475
900,4.886636952119118
901,4.896121041103211
902,4.88577819982754
903,4.928999816513556
904,4.961516746580511
905,5.034120972927009
906,5.091441226348697
907,5.128323628227844
908,5.081493779104336
909,5.026794635203749
910,4.988704282127178
911,4.991089098377081
912,4.9890463949916475
913,4.978036711123725
914,4.960768680070912
915,4.938430885404562
916,4.904256126801035
917,4.894351111305788
918,4.868965040575733
919,4.8705883510885055
920,4.871274533895693
921,4.833122733819034
922,5.12058623015214
923,5.160267649653785
924,5.102643654145375
925,5.08271185799956
926,5.0830857584816185
927,5.062321984711928
928,5.0844509216059945
929,5.0949186453890265
930,5.098720172305147
931,5.085527280254033
932,5.112806307958503
933,5.113447076633805
934,5.192165458378569
935,5.383754774694498
936,5.528889358184491
937,5.543327661645292
938,5.265918853948573
939,5.034926897032444
940,4.91608105226907
941,4.997726006241592
942,5.065825627617339
943,5.107798700276108
944,5.120012981876371
945,5.120799190583361
946,5.132126564914379
947,5.168631174034281
948,5.221204113447325
949,5.275847887869145
950,5.3605265746724955
951,5.357572664273947
952,5.336953023736882
953,5.257072792261381
954,5.247040611575381
955,5.22699181702419
956,5.226807782330576
957,5.235043983661245
958,5.189204372877142
959,5.175511118919572
960,5.155197705590595
961,5.1261074405015
962,5.107407556723912
963,5.100457345077892
964,5.133426274670274
965,5.14733182808775
966,5.168154048666915
967,5.241383810531677
968,5.199902492538416
969,5.199425132754177
970,5.179956312970869
971,5.175749626871309
972,5.194390355231198
973,5.213804883776518
974,5.203402220544502
975,5.188439149564934
976,5.191070210489142
977,5.219774898603388
978,5.286629725653191
979,5.479671803336386
980,5.631701983434026
981,5.640160845522432
982,5.3640779071950915
983,5.123146155903994
984,5.008941322791457
985,5.089005563569226
986,5.158081043606704
987,5.2173209424326705
988,5.1963762403546
989,5.194136148720846
990,5.24318120047484
991,5.266669762940753
992,5.313609978214497
993,5.384174517294055
994,5.451136725148403
995,5.472984948023184
996,5.419255092046619
997,5.378499615295144
998,5.326260223386548
999,5.339416096235193
1000,5.34336835275381
1001,5.345313024210893
1002,5.2960643310117765
1003,5.270733345265376
1004,5.2505936301999725
1005,5.225527982251999
1006,5.192246472299727
1007,5.177559045496295
1008,5.200519750411622
1009,5.142883177627153
1010,5.068207358730581
1011,5.115862942844622
1012,5.075937842361284
1013,5.056321398257037
1014,5.0407658924858145
1015,5.052061486270087
1016,5.0304691908756345
1017,5.036762813809824
1018,5.03053288821549
1019,5.069299149628709
1020,5.05105444180299
1021,5.063561637757883
1022,5.156237827982334
1023,5.331665540635492
1024,5.496372598117909
1025,5.472729082325106
1026,5.229954870848958
1027,4.988419401426806
1028,4.864293314942867
1029,4.9486712693779875
1030,5.015864654931143
1031,5.039923631789263
1032,5.066090293352619
1033,5.086373178786205
1034,5.08449063229278
1035,5.122551709288443
1036,5.185570175865642
1037,5.25864507476127
1038,5.286739778984792
1039,5.31715163180354
1040,5.287326284140848
1041,5.220680705558665
1042,5.188677722948089
1043,5.175706952798353
1044,5.199049491310208
1045,5.19367959796563
1046,5.150382143261828
1047,5.135432318366712
1048,5.102139760228374
1049,5.065373167530189
1050,5.059728817544873
1051,5.053102533521963
1052,5.0616024471974885
1053,5.040720431767086
1054,4.985897904845063
1055,5.025529269338133
1056,4.96619703610271
1057,4.9355868387317186
1058,4.950408473579685
1059,4.935909407205127
1060,4.952055798407596
1061,4.951859492822775
1062,4.952343287806341
1063,4.966528952893603
1064,4.970708195870743
1065,4.974208355960666
1066,5.0571624681149885
1067,5.215421483620781
1068,5.377175346478239
1069,5.062710262925844
1070,4.90255828516529
1071,4.9648657891090044
1072,5.026536735588145
1073,4.916302442687127
1074,5.060202673337447
1075,4.932126067517058
1076,4.990696555376876
1077,4.9034498555278025
1078,5.104046865445543
1079,5.105109796443132
1080,5.062301144823573
1081,5.138129998983931
1082,5.194341213041856
1083,5.204806147254318
1084,5.172228883344792
1085,5.130396282125103
1086,5.089239998479285
1087,5.0827470119496825
1088,5.088304875838403
1089,5.095028649376194
1090,5.0781203635510925
1091,5.028961174868101
1092,4.996156611710659
1093,4.9851695929937785
1094,4.969896670380734
1095,4.9417970397092414
1096,4.941957471246013
1097,4.926713912587212
1098,4.91945507608298
1099,4.88690265094114
1100,4.852472898903828
1101,4.853547437266145
1102,4.849742144181877
1103,4.819976873981684
1104,4.844031029033986
1105,4.8400892788227825
1106,4.8835536251407445
1107,4.860114594208099
1108,4.8688513486205185
1109,4.861008251564309
1110,4.953381710316737
1111,5.133192497049247
1112,5.268618392295633
1113,5.275823851018133
1114,5.014243900926227
1115,4.8158946184038225
1116,4.682507533339325
1117,4.754923053775561
1118,4.818952169870995
1119,4.86388524052592
1120,4.8649388343863995
1121,4.887961500212387
1122,4.889713852736251
1123,4.931832230227255
1124,4.9782706066032025
1125,5.021829410977926
1126,5.112598543668399
1127,5.0949386966840216
1128,5.076135345255087
1129,5.021608502314816
1130,4.989146258800324
1131,4.991012673912467
1132,4.978000657151613
1133,4.9779819922316255
1134,4.965109657823259
1135,4.944432831133691
1136,4.912109767298929
1137,4.859719874320857
1138,4.854893844385503
1139,4.845856403580221
1140,4.889563511957677
1141,4.847469380655703
1142,5.116680131469546
1143,5.186811350977045
1144,5.116179603167053
1145,5.091108783977807
1146,5.082821828793753
1147,5.105206576023378
1148,5.113649196754622
1149,5.086048448279965
1150,5.099094196197781
1151,5.1114787925124565
1152,5.101690651838374
1153,5.119584044124322
1154,5.195339563721773
1155,5.377263143708907
1156,5.542461390677667
1157,5.544776429106079
1158,5.2846808860254555
1159,5.037259840918399
1160,4.913321344511135
1161,4.994891158866746
1162,5.070103036281537
1163,5.083972681932348
1164,5.129201058901834
1165,5.132152448528412
1166,5.1419816411764
1167,5.18259711817794
1168,5.212932974789239
1169,5.304362611963843
1170,5.352832225251482
1171,5.357869274363739
1172,5.32725065059259
1173,5.275945076703963
1174,5.235477027814148
1175,5.235917935776217
1176,5.235051647512216
1177,5.224409034443284
1178,5.210075623259835
1179,5.178013957242802
1180,5.144865715543796
1181,5.134313807068708
1182,5.092999663106612
1183,5.0894747697802165
1184,5.144830935075868
1185,5.1473047206304665
1186,5.175322405224634
1187,5.255644641292698
1188,5.212674420345474
1189,5.182645857122628
1190,5.190316399114279
1191,5.1940678966425216
1192,5.204822656575096
1193,5.186161971049795
1194,5.219069779694211
1195,5.21239644725993
1196,5.199953931776581
1197,5.228324733191162
1198,5.312642592255447
1199,5.470022952549766
