timestamp,value
0,4.952501237191195
1,4.96830166860898
2,4.981699770813312
3,4.971699529763471
4,4.9367008542415105
5,4.901700928275398
6,4.89329922394056
7,4.886700433315383
8,4.888299874401292
9,4.876700961164046
10,4.87000042670125
11,4.849998022420928
12,4.845000319052499
13,4.8417004687923315
14,4.854999070520345
15,4.856701039530469
16,4.856700115168687
17,4.856700892256636
18,4.861700687552653
19,4.873299777299289
20,4.956699886100259
21,5.119999376219623
22,5.2700014189181585
23,5.278300700646096
24,5.016700068603017
25,4.789999319077522
26,4.678302281988457
27,4.753301353738149
28,4.823300184495985
29,4.851700459990962
30,4.873297672741741
31,4.876698570153665
32,4.886700534623146
33,4.926701015622713
34,4.974998543245767
35,5.038300584590949
36,5.091699384821438
37,5.110000470931294
38,5.076700918077487
39,5.0249988697464465
40,4.993301088096353
41,4.983300830908911
42,4.988300789575148
43,4.985000301697581
44,4.965001181111298
45,4.935000042743367
46,4.903299369654813
47,4.883300363864229
48,4.858299416839693
49,4.851700047993158
50,4.83492856910918
51,4.889603590032652
52,4.926464092186888
53,4.919564637302473
54,4.971653800602769
55,4.97726217837858
56,4.9931423074516665
57,5.006608502257086
58,4.996558123044651
59,4.961383793027106
60,4.926207739373757
61,4.917765081929018
62,4.911132672093059
63,4.91274114583234
64,4.901084257214781
65,4.894348950138899
66,4.874252040264065
67,4.869226489000775
68,4.8659073270865125
69,4.879274572352509
70,4.880983409071143
71,4.880983798703055
72,4.8809830650981825
73,4.886007742610652
74,4.897666330251055
75,4.981484253756345
76,5.145600439966157
77,5.296350646458296
78,5.3046914294701715
79,5.041783545778107
80,4.8139489058318725
81,4.701692739482533
82,4.777067875258538
83,4.847417202539019
84,4.87595703229757
85,4.8976661738075835
86,4.901083544898316
87,4.91113333704338
88,4.951332569614554
89,4.999874652958378
90,5.063492686825161
91,5.117159032752719
92,5.135549718119419
93,5.102083260915197
94,5.050125614424199
95,5.0182666510079
96,5.008217166478053
97,5.013241697300803
98,5.009924555073895
99,4.989823699462768
100,4.959674373090679
101,4.927816843803034
102,4.907717217068491
103,4.882589965528018
104,4.875958638913598
105,4.887872471956956
106,4.885247871399102
107,4.902483397482308
108,4.89488449793613
109,4.933240107544317
110,4.927737709979828
111,4.943456990317631
112,4.9567912081942636
113,4.946840176397578
114,4.912016020879779
115,4.877192411144401
116,3.9201130800159065
117,3.9801758876203426
118,4.179369834588603
119,3.983815944116138
120,4.2265897117858175
121,4.198592104262762
122,4.008133014017927
123,3.992884023885725
124,4.830724842376415
125,4.832416555130811
126,4.8324172017292035
127,4.832416900382199
128,4.837392344936856
129,4.848933472292472
130,4.931916537845822
131,5.094399569821069
132,5.24365124459307
133,5.2519086960374874
134,4.9916143767367815
135,4.766050975319802
136,4.654906992713619
137,4.729533905071365
138,4.799182913304307
139,4.827443565506275
140,4.848934461459188
141,4.852315570039918
142,4.862267106470928
143,4.902067040538822
144,4.950125512365091
145,5.013108282686777
146,5.066239767922499
147,5.084449937849004
148,5.051315877064523
149,4.999875466191095
150,4.968334527547914
151,4.958382323468898
152,4.963358189616682
153,4.960076357083473
154,4.940175229478813
155,4.910325763883648
156,4.878783333896224
157,4.858883623024634
158,4.834008458656651
159,4.827441239854197
160,4.860653209038088
161,4.8623697861606505
162,4.917110847635569
163,4.908873118272817
164,4.909422386982638
165,4.952500201639845
166,4.9682988054003445
167,4.981700762491892
168,4.971700408682728
169,4.936702115225178
170,4.901698523662582
171,4.893298706809142
172,4.886699228482599
173,4.888299096977061
174,4.8766983491819
175,4.869999370262637
176,4.850000793621966
177,4.84500071663282
178,4.841699394555094
179,4.854999162868072
180,4.856699371458427
181,4.8567006847570875
182,4.856699481980986
183,4.861700065470253
184,4.873299046719411
185,4.956697857114907
186,5.119999079879167
187,5.269999295218639
188,4.831254839476652
189,4.983005002754102
190,5.009357667011261
191,5.015458839590244
192,4.828116107968619
193,4.996667152845852
194,4.851701009631664
195,4.8733001603781005
196,4.876700667468825
197,4.886698468700142
198,4.926701410073092
199,4.975000876477995
200,5.038300747789163
201,5.091699047653591
202,5.110000548414885
203,5.076698409765483
204,5.025000926526025
205,4.993301028316257
206,4.983300477325969
207,4.988298767039503
208,4.98499943417446
209,4.965000795063287
210,4.934999778081212
211,4.903299016920581
212,4.883299593737833
213,4.8582983730216736
214,4.8516996648887805
215,4.888212438125313
216,4.906319722818079
217,4.900402737350939
218,4.890481947254808
219,4.967322177312616
220,4.952499972930671
221,4.968300445481018
222,4.981701982188166
223,4.971700178894859
224,4.110108824394673
225,3.9413604096002066
226,4.051450336084182
227,4.199179523053261
228,4.12820307871959
229,4.211257594393874
230,4.234032920704213
231,3.9538956224614745
232,3.8790930522878795
233,4.6475911127921385
234,5.088135436322026
235,5.02359190307257
236,4.872148654517621
237,5.048489216845281
238,4.861699956168859
239,4.873299802726243
240,4.95670065754398
241,5.11999903218078
242,5.270000016927376
243,5.2782991443145
244,5.016700468589258
245,4.790001659797924
246,4.678300578131197
247,4.75329942577576
248,4.82330122914126
249,4.85170039901935
250,4.873299857653248
251,4.87669983438264
252,4.886699153290307
253,4.926700148962622
254,4.974999499763312
255,5.038300743289775
256,5.091700377347101
257,5.109999304334273
258,5.076700050857819
259,5.024999257578708
260,4.993300124331947
261,4.983300826128825
262,4.988299910359662
263,4.984999456660107
264,4.964999922376219
265,4.935000476808474
266,4.903299415673366
267,4.883301367826046
268,4.858298372857682
269,4.851700899492379
270,4.834926690444472
271,4.889600211004737
272,4.926464063358722
273,4.919562842781004
274,4.971653744758382
275,4.977263363443254
276,4.9931411462108874
277,5.00660929040673
278,4.996559259093963
279,4.961386391379258
280,4.926209458527542
281,4.917767665591633
282,4.911134275944001
283,4.912741090331974
284,4.901084004679825
285,4.894350050283498
286,4.874252474798788
287,4.869224994160337
288,4.865909601425851
289,4.879274274746042
290,4.8809839476307
291,4.880984159781433
292,4.880983539932311
293,4.886006937874544
294,4.897667423872342
295,4.981484010460806
296,5.1455990177611
297,5.296349858963996
298,5.304692767883931
299,5.0417836579130535
300,4.813948556380192
301,4.701690421658581
302,4.777064322933512
303,4.847417288886228
304,4.875959076219456
305,4.897666972312386
306,4.901084115868877
307,4.911133598268376
308,4.9513329427735115
309,4.99987551232989
310,5.063492126937016
311,5.117159819193209
312,5.1355478205914515
313,5.102082751046007
314,5.05012503672404
315,5.018268572026723
316,5.008216628607991
317,5.01324214101722
318,5.009923900820433
319,4.989826551511527
320,4.959675749300115
321,4.9278167070109635
322,4.907717399636657
323,4.882591044429845
324,4.8759587540523635
325,4.887870765118188
326,4.885247497880546
327,4.902485618767947
328,4.8948846331485205
329,4.93324148383816
330,4.92773735437946
331,4.943457870964767
332,4.956790018920953
333,4.946842412189456
334,4.912016167159373
335,4.877191245259312
336,4.868832710861649
337,4.862267629386046
338,4.863858823864455
339,4.8523158842200225
340,4.8456512410753865
341,4.825750712376897
342,4.820774487652244
343,4.817491416425052
344,4.8307247567819225
345,4.832416521288793
346,4.832417643978355
347,4.832416208011267
348,4.8373921314721855
349,4.848934582503105
350,4.931915096322
351,5.094398340438589
352,5.243650039586302
353,4.908619173729723
354,4.879367872229708
355,4.92821183569551
356,4.826149911315455
357,4.922984489201886
358,4.799184287600314
359,4.827442099899682
360,4.8489342424545505
361,4.852315946942897
362,4.862268094550984
363,4.902067288685385
364,4.950124779287081
365,5.013108353740746
366,5.066242133398359
367,5.084450096165964
368,5.051316908547706
369,4.999875929110953
370,4.968332486335741
371,4.95838378483646
372,4.963359044027147
373,4.960076051851662
374,4.940173236606693
375,4.9103246773097995
376,4.878782784702219
377,4.8588834114333315
378,4.834007905716465
379,4.827442432407897
380,4.8606546707213125
381,4.862368625830588
382,4.917112390451301
383,4.908871342268377
384,4.9094239746120545
385,4.952499249619369
386,4.968298328961771
387,4.981698983101021
388,4.971700463745854
389,4.93670031305443
390,4.9017002492584805
391,4.89329905681697
392,4.886700449059221
393,4.8883003470311515
394,4.876699297423023
395,4.869999439538964
396,4.8499995164096665
397,4.844998881719448
398,4.841701218219362
399,4.8549997558887625
400,4.856699139717952
401,4.856698646519243
402,4.856699054782951
403,4.861698343922595
404,4.873300772674009
405,4.956699697865662
406,5.119999826122673
407,5.269998267894458
408,5.278300169951587
409,5.016698077823792
410,4.79000009528438
411,4.678298750480058
412,4.753300745740608
413,4.823298912965363
414,4.851699066108096
415,4.873298248086821
416,4.876699390292026
417,4.886699331750273
418,4.926701279542232
419,4.975000589110828
420,5.038299534856676
421,5.091698356903941
422,5.109998584504877
423,5.076700485329163
424,5.025000066041581
425,4.993299311191469
426,4.983298726132476
427,4.988300083823533
428,4.984999941988626
429,4.965000124855565
430,4.934999462047573
431,4.903299582437501
432,4.88330180848688
433,4.858299519330936
434,4.851700738078503
435,4.88821110028781
436,4.906318604407162
437,4.900401421741108
438,4.890482914641014
439,4.967320714598014
440,4.952499360488252
441,4.968298960756866
442,4.981699147733515
443,4.971700219007597
444,4.936701917098071
445,4.901700927749436
446,4.89330004170102
447,4.886698804424277
448,4.8882999089856884
449,4.8766997972022175
450,4.86999998994093
451,4.849999847894732
452,4.845000255230013
453,4.841700882684386
454,4.855000449851347
455,4.85669958823155
456,4.856700077927206
457,4.85670043689427
458,4.861701585142688
459,4.873300726694488
460,4.956698594038395
461,5.120001898679762
462,5.269997349034499
463,5.278300185166719
464,5.01669858071811
465,4.790000851238852
466,4.678299799076779
467,4.753300525895509
468,4.823300683412671
469,4.851700376744166
470,4.873300373925383
471,4.876701847597502
472,4.886702102963484
473,4.926699671934274
474,4.974999311111128
475,5.038300709443068
476,5.0916998768636015
477,5.110000392798226
478,5.0766996226027095
479,5.02499923847558
480,4.993299225388127
481,4.983299691518921
482,4.988298966178449
483,4.9850010373047615
484,4.965001010889433
485,4.9349996666699685
486,4.903298641600077
487,4.883301011590858
488,4.858299835482264
489,4.851699758350433
490,4.834928467221156
491,4.889601693500589
492,4.926462585886456
493,4.9195614924014865
494,4.9716538137562685
495,4.977261939957206
496,4.993141113905921
497,5.006607994467129
498,4.996559511692987
499,4.96138200101531
500,4.926207899989328
501,4.917767696656638
502,4.911133316127969
503,4.912741018944306
504,4.901081883403296
505,4.8943499641717025
506,4.874249494697019
507,4.869225660040833
508,4.865909179544572
509,4.879275602055983
510,4.880983222848993
511,4.880982598913429
512,4.88098516578415
513,4.886009057051865
514,4.897666589344274
515,4.981483658663395
516,5.145602052100464
517,5.296350325173352
518,5.304691393244434
519,5.041783564665643
520,4.813951055242931
521,4.701690958324455
522,4.777066121648428
523,4.847413728195045
524,4.875958269856011
525,4.897668223821315
526,4.901084538493379
527,4.911131443161988
528,4.9513330936233135
529,4.999875109877521
530,5.063492859181682
531,5.11715714421621
532,5.135550265755738
533,5.102083216012875
534,5.050126380316054
535,5.01826695589714
536,5.008217310015301
537,5.013241765213662
538,5.009922912355628
539,4.989824907071229
540,4.959676084564114
541,4.927815948147668
542,4.907716936078376
543,4.8825904665152295
544,4.875957139671677
545,4.887869062571723
546,4.8852474116273505
547,4.902483163433098
548,4.894883792245992
549,4.933242353706661
550,4.927738070136671
551,4.943458860469034
552,4.956790220312577
553,4.946842165180394
554,4.912015318568531
555,4.877191931704612
556,4.868834191899551
557,4.862266656909056
558,4.863858541642503
559,4.852315804838519
560,4.845650378729034
561,4.825748964101258
562,4.820775949506225
563,4.817492280239222
564,4.830724987107265
565,4.832417252564546
566,4.832414697766012
567,4.832417112958499
568,4.837390840913312
569,4.848932067116987
570,4.931916489824433
571,5.094398532777836
572,5.243649428113754
573,5.251907995317811
574,4.9916166145217415
575,4.766049055622154
576,4.6549075067626955
577,4.729532926739745
578,4.799184408591019
579,4.827440021214138
580,4.848932812195779
581,4.852317034509813
582,4.862267777744747
583,4.902066477205098
584,4.9501235101145085
585,5.013108455892616
586,5.06624069927565
587,5.0844491850668465
588,5.051316923159876
589,4.999875124155935
590,4.968333782608132
591,4.958382499164573
592,4.9633587362461755
593,4.9600773985634525
594,4.940175142839401
595,4.910325945381094
596,4.878782756155146
597,4.858884096983466
598,4.834008800574708
599,4.827442644325178
600,4.860653809655927
601,4.8623700194341914
602,4.9171128294598105
603,4.908871293085041
604,4.909424378234148
605,4.952500284645089
606,4.968299024308925
607,4.981699614615652
608,4.9716984751100135
609,4.9366998530432165
610,4.901701242840075
611,4.893300384969113
612,4.886700940630051
613,4.888300894549782
614,4.8766988500799515
615,4.870001458589159
616,4.849998448790467
617,4.844998779164207
618,4.841699789452155
619,4.854999254097376
620,4.856699900268125
621,4.856699882683083
622,4.856702191853294
623,4.861700055415373
624,4.873299590113866
625,4.956700837666731
626,5.119998943164365
627,5.269999731478049
628,5.278299334326841
629,5.016702501136352
630,4.789999404254688
631,4.6783002233404725
632,4.7532981637198555
633,4.823299834644267
634,4.85170035572806
635,4.873299773079022
636,4.87669873640045
637,4.886699427939884
638,4.926698882735048
639,4.974999250073397
640,5.0383010327907
641,5.091699589587592
642,5.110000701038031
643,5.0767010362105065
644,5.025000599512354
645,4.993300028396157
646,4.98330067393473
647,4.988300889912106
648,4.985001106780817
649,4.965000124679649
650,4.934999855634889
651,4.903300706298218
652,4.883300346144314
653,4.858300503150867
654,4.851700104418216
655,4.888211093331217
656,4.906320144607721
657,4.900402024721401
658,4.8904835316029125
659,4.967319996327487
660,4.9525003576569215
661,4.9683006912998415
662,4.981699336468044
663,4.971699861515315
664,4.936700832881652
665,4.901700003721776
666,4.893300825788732
667,4.886699596609314
668,4.8883008503502365
669,4.876698280055724
670,4.869998227270087
671,4.850002584034825
672,4.845000493717973
673,4.841699382844032
674,4.854999383578074
675,4.856701287619851
676,4.856700545238551
677,4.8566989812878925
678,4.861700384927977
679,4.873298929988913
680,4.956698967215648
681,5.120000264592381
682,5.270001076186749
683,5.278301480030055
684,5.016700124788924
685,4.789999832784408
686,4.678300882705252
687,4.75330028033302
688,4.8233004713329
689,4.851698961345565
690,4.873299525364747
691,4.876701107044856
692,4.886698429737327
693,4.9267004303612
694,4.975000246209192
695,5.038299779719887
696,5.091698800739757
697,5.109999440622134
698,5.076699704849856
699,5.025000920212314
700,4.993299852924627
701,4.983301358438871
702,4.988299725223789
703,4.984999531771872
704,4.965000311137612
705,4.934999675764233
706,4.903299719614445
707,4.883299189772624
708,4.858300469485792
709,4.85169916354236
710,4.834925752018443
711,4.88960124369979
712,4.926463028381157
713,4.919563104201533
714,4.971653631003768
715,4.977262152708951
716,4.993140790174654
717,5.006608894095172
718,4.996556947623986
719,4.961382596099045
720,4.926209252020778
721,4.917767407719186
722,4.911133059325279
723,4.912741800688908
724,4.9010822653072745
725,4.894348131970184
726,4.874250630782019
727,4.869226423498831
728,4.865908331859508
729,4.8792767929561105
730,4.880986304869264
731,4.88098434894628
732,4.880983205570808
733,4.886008983568255
734,4.897665150368188
735,4.981484041393485
736,5.145601020933468
737,5.296350495644285
738,5.304690851705856
739,5.0417825509500815
740,4.813949157337032
741,4.701692000864832
742,4.777063619537198
743,4.847416987926987
744,4.875959413844057
745,4.8976657085075646
746,4.901081902966323
747,4.911133748384271
748,4.951332921542732
749,4.999874447985707
750,5.063491034427438
751,5.117158579121471
752,5.1355498809622535
753,5.102081315655385
754,5.050125042531658
755,5.018266217749208
756,5.008217270343926
757,5.013240735733406
758,5.009923797632014
759,4.989825306919982
760,4.959675337777001
761,4.927816900848208
762,4.907716436863642
763,4.882591036453596
764,4.875959360083834
765,4.887871651309578
766,4.885246525955798
767,4.9024845702088475
768,4.894883587478622
769,4.933242466474532
770,4.9277369002672735
771,4.943456732224002
772,4.95679325807716
773,4.9468414040729325
774,4.9120163020145196
775,4.877192576185863
776,4.868833570016819
777,4.862267239888763
778,4.863858318772266
779,4.852316983385161
780,4.845649457206987
781,4.825750249663047
782,4.820777407686621
783,4.817490827379903
784,4.830723475849003
785,4.832416445072145
786,4.832415834107602
787,4.83241641791841
788,4.837390810110921
789,4.8489336591157075
790,4.931916549182407
791,5.094402883006779
792,5.243648897278201
793,5.25190936983274
794,4.991616035484395
795,4.766049636512232
796,4.654908936751835
797,4.729532645737077
798,4.79918447935171
799,4.827442024824172
800,4.848934313874154
801,4.85231838783455
802,4.862268342946084
803,4.902067102203949
804,4.9501241781477034
805,5.013106498764834
806,5.066241263134263
807,5.084449801215535
808,5.051316244093187
809,4.99987607859122
810,4.96833197045438
811,4.958382272832455
812,4.963358892841113
813,4.96007562317757
814,4.940176524604226
815,4.910323030016894
816,4.878784640702092
817,4.8588820927797025
818,4.834008329470482
819,4.827441651189978
820,4.8606551245467005
821,4.862369627284975
822,4.917112806965602
823,4.90887537354524
824,4.909422287155284
825,4.952498675714274
826,4.968299507693056
827,4.981700237990751
828,4.971699895354639
829,4.936700949025169
830,4.901698603301812
831,4.893300765945919
832,4.8866988343891355
833,4.888301491216107
834,4.876700025348554
835,4.869999049362507
836,4.8499995912390785
837,4.84500176574309
838,4.841699080357449
839,4.854997563887682
840,4.856700587268502
841,4.85669973737142
842,4.8567001186366365
843,4.861701369112659
844,4.873300017039521
845,4.956700499652276
846,5.119999031005115
847,5.270000123118946
848,5.278300645248368
849,5.016698346051095
850,4.790000369873889
851,4.678300995128484
852,4.753300252047079
853,4.8233010698000225
854,4.851699509706755
855,4.873300237742115
856,4.87669813247764
857,4.886698404620958
858,4.926700639837852
859,4.97500002572769
860,5.038301376918583
861,5.091700802988066
862,5.109998588759432
863,5.076699693517655
864,5.024998899820619
865,4.9933000199030415
866,4.983299595511799
867,4.988299255309672
868,4.985000086308866
869,4.964999107002131
870,4.935000451759684
871,4.903300505132378
872,4.883301169137322
873,4.858300272304746
874,4.851701608742517
875,4.8882115974608835
876,4.906320687544128
877,4.900403186374495
878,4.890483430376979
879,4.96732179216805
880,4.952500076975557
881,4.968300891598315
882,4.981700508531526
883,4.971699416931734
884,4.93669930116915
885,4.901700335580165
886,4.893300473874115
887,4.8866995458246
888,4.888300462828915
889,4.876700441706115
890,4.869998672264074
891,4.849998459205049
892,4.844998058240706
893,4.841699503375934
894,4.855001617078152
895,4.856699865592254
896,4.856701061577305
897,4.85670254761819
898,4.861700678782946
899,4.8732988356727915
900,4.956699092873587
901,5.120001450592825
902,5.270000030701204
903,5.278300910704836
904,5.016700975975552
905,4.789999825758843
906,4.6782994704982785
907,4.753298144595029
908,4.823300091199517
909,4.851700169203578
910,4.873300720541642
911,4.876699527013956
912,4.886700328593005
913,4.926700581906412
914,4.974999577974961
915,5.038300012306899
916,5.091700355839025
917,5.110000374053046
918,5.076700377380641
919,5.024998970981948
920,4.993299252829281
921,4.983300480676238
922,4.98829964347458
923,4.9850001434785485
924,4.964998734451985
925,4.935000542547179
926,4.903300337319771
927,4.883300336469145
928,4.858300694557789
929,4.851700245021878
930,4.834927786009984
931,4.889604074763398
932,4.92646301149952
933,5.473766589849124
934,5.794311395808017
935,5.4931043778857145
936,5.529358927883718
937,5.529049673270096
938,4.996558268654717
939,4.961382116973568
940,4.926207366390677
941,4.917764253115672
942,4.911133261072899
943,4.912740244653911
944,4.901083318128497
945,4.894348954875508
946,4.874249874459278
947,4.869226332913233
948,4.865907871653101
949,4.879274955342926
950,4.880984261944926
951,4.880984811286894
952,4.8809832615629825
953,4.886008284566843
954,4.897666016791436
955,4.981482906127354
956,5.145600801162604
957,5.296349476595267
958,5.304692090444082
959,5.041783551468124
960,4.813950930452061
961,4.701690416456098
962,4.777067095324629
963,4.847416302405627
964,4.875957428354429
965,4.897666661548257
966,4.9010839594455335
967,4.911132125994711
968,4.9513324234221345
969,4.999873251169396
970,5.063490906438963
971,5.117159338578969
972,5.135548690699056
973,5.102084967947989
974,5.050124706397977
975,5.018266094486373
976,5.008217521507356
977,5.013242372443512
978,5.009925610106929
979,4.989825369609207
980,4.959676151029679
981,4.927815407556577
982,4.907716238061481
983,4.882593157740743
984,4.875959827732586
985,4.8878712938074145
986,4.885247117034247
987,4.902482738505984
988,4.894884683550406
989,4.933242998618225
990,4.927737315022234
991,4.943458838416678
992,4.9567932904957726
993,4.946843052469644
994,4.912016439718959
995,4.877190705486384
996,4.868834161830146
997,4.862267661041789
998,4.863859504742055
999,4.8523157165253945
