timestamp,value
0,4.952378397632582
1,4.96861774962085
2,4.981920343627871
3,4.971880196131225
4,4.935030871721657
5,4.901752970109525
6,4.893635477049001
7,4.885297635748376
8,4.889448541862104
9,4.879258213590401
10,4.869518238154877
11,4.848960106861864
12,4.846051398815604
13,4.840273908407057
14,4.852702617133284
15,4.856020555639842
16,4.856560643346929
17,4.856862208582083
18,4.862056697201144
19,4.873154075380799
20,4.957917955949369
21,5.120980146513088
22,5.270076190168915
23,5.278760765598974
24,5.015797119905903
25,4.78998523215251
26,4.679890998340762
27,4.753085209912595
28,4.823780351712667
29,4.8508446340552105
30,4.872578182087075
31,4.87590658105721
32,4.8877260299409615
33,4.926371607862327
34,4.9737331539500795
35,5.038461192469377
36,5.0903035111685355
37,5.111595568494042
38,5.075692465325913
39,5.02566214956162
40,4.994993413094811
41,4.982850618896435
42,4.987525650514169
43,4.984088464549243
44,4.965267894771373
45,4.9347149425993235
46,4.903263526440271
47,4.882750571460135
48,4.858778902450719
49,4.852455516921816
50,4.8616033862115
51,4.906634440155468
52,4.907160629490328
53,4.911001108450429
54,4.946761213396066
55,4.977184579281545
56,4.994331665914576
57,5.0065825671296835
58,4.997851451854635
59,4.961118220914439
60,4.927230525437144
61,4.915796264389093
62,4.9124556782305975
63,4.914292999637626
64,4.901183670632107
65,4.894141939082254
66,4.874170509064508
67,4.868052374928976
68,4.866472776883847
69,4.879515253892226
70,4.879350081643326
71,4.880494280060003
72,4.880276653084141
73,4.886095480116066
74,4.896983600881346
75,4.979988286473291
76,5.145187900714611
77,5.2955601428056385
78,5.303282838345508
79,5.041532402099553
80,4.812894566092643
81,4.70102362644992
82,4.777123755467384
83,4.847575308938533
84,4.875152487351931
85,4.8983830931538135
86,4.900149175070767
87,4.911926131009767
88,4.951868724549159
89,4.998944142572376
90,5.064761438551917
91,5.116119766327283
92,5.133835861802351
93,5.101910061814552
94,5.050155761787113
95,5.019574590279255
96,5.006880997580205
97,5.013326660544616
98,5.009319401601413
99,4.990760333663682
100,4.9598416464701875
101,4.929417908978901
102,4.907823550772561
103,4.882081217548018
104,4.878023118051632
105,4.877470704771714
106,4.897827494968261
107,4.8951210180625555
108,4.9313393514517445
109,4.979164749294012
110,4.966107622440603
111,4.984143429907056
112,4.995578019472119
113,4.985479081748957
114,4.9515493646572795
115,4.918210866174347
116,4.907163435872677
117,4.89998183546636
118,4.90269171343711
119,4.892308314611171
120,4.886435784878204
121,4.863795662480251
122,4.858071945269687
123,4.856413169775828
124,4.870695183196966
125,4.870766821447651
126,4.872240575254993
127,4.871407295917
128,4.877162563396168
129,4.887517781342831
130,4.970930065831191
131,5.136877403330319
132,5.285585619567503
133,5.292679225963011
134,5.03170066731539
135,4.805069487454904
136,4.69246674584957
137,4.766325252834103
138,4.837919090912287
139,4.866540833115296
140,4.887568697107199
141,4.891910752967338
142,4.900706683840782
143,4.941400872169322
144,4.990063460322683
145,5.053484560083789
146,5.107827410895442
147,5.125731323003429
148,5.091283423020253
149,5.039357506767678
150,5.007356647230397
151,5.000170399282337
152,5.003410440434004
153,4.998529369004585
154,4.979442909295874
155,4.949519400505379
156,4.918479187498787
157,4.896645159399222
158,4.872578124345308
159,4.866417282515219
160,4.854051777105612
161,4.897581336272202
162,4.9329437348799585
163,4.927160222636159
164,5.045401450305432
165,5.036793393525803
166,5.052355873244239
167,5.0649941500961155
168,5.058384439065139
169,5.021883809062806
170,4.985697289150402
171,4.976865995997374
172,4.971450977153312
173,4.970235295624779
174,4.960813988234411
175,4.953648792318739
176,4.9320724446996795
177,4.926445679498095
178,4.924136300955807
179,4.936959976393217
180,4.94073416160833
181,4.939093421588095
182,4.939738215145746
183,4.9430891349023085
184,4.955999086947739
185,5.040867271351203
186,5.2074772101904445
187,5.360009152252963
188,5.368582736598733
189,5.101876449484368
190,4.871061802107
191,4.759174337946482
192,4.833541515731448
193,4.905938432235537
194,4.933660246690338
195,4.956155901148993
196,4.957727122198814
197,4.970081717040314
198,5.010444122006242
199,5.060997252966666
200,5.122631108018658
201,5.178220335201532
202,5.198112150025668
203,5.16247751598736
204,5.11060032207808
205,5.0785167253531025
206,5.068493287341439
207,5.072388736182076
208,5.068093372963453
209,5.046858767881279
210,5.01965502079749
211,4.986516188161134
212,4.964237832206469
213,4.940692253798998
214,4.9361481443609785
215,4.936882677077161
216,4.939056846905043
217,4.943849739835901
218,4.946055578205774
219,4.953003914010787
220,4.9517345481552475
221,4.969166186757238
222,4.9833866781544796
223,4.972012606815516
224,4.934158977649568
225,4.90081056026349
226,4.893736120293124
227,4.885830048444566
228,4.888094273266716
229,4.877222584065853
230,4.86975257209703
231,4.849827298879407
232,4.844340496176974
233,4.841569140147107
234,4.854622752181564
235,4.857478878005958
236,4.857372281631767
237,4.855981397923612
238,4.85946606039671
239,4.872462901994309
240,4.956260635016843
241,5.120685808648121
242,5.270207932572373
243,5.277169237698818
244,5.018003149996753
245,4.788320383370174
246,4.677480005625612
247,4.752190321475068
248,4.822884309695776
249,4.850417810369535
250,4.873389580099197
251,4.876847531079729
252,4.885697765445508
253,4.926113452980485
254,4.976751845303473
255,5.039426400327103
256,5.091122159631742
257,5.110133053109053
258,5.076297814616942
259,5.026695350189292
260,4.9950295819290655
261,4.983999395614016
262,4.98904332126119
263,4.984338335105447
264,4.965792643091948
265,4.935026953075877
266,4.903406372348275
267,4.883018916565307
268,4.857436603357523
269,4.851639899536751
270,4.860508075137251
271,4.905716953136004
272,4.906981006177174
273,4.909992167588631
274,4.948170799314226
275,4.97546223509911
276,4.991871688500944
277,5.006432925357705
278,4.997055816744706
279,4.9607636513133215
280,4.925952013974078
281,4.9192642921865
282,4.911634756570985
283,4.912534805962695
284,4.900537050503508
285,4.8950696306912205
286,4.874874192250898
287,4.869673232957503
288,4.865792263154513
289,4.878635593137789
290,4.880605557070452
291,4.881883832130712
292,4.880356922285545
293,4.886473932476221
294,4.897992661964171
295,4.979725090423685
296,5.145306220797377
297,5.2951114629667275
298,5.305921659042617
299,5.041812809339902
300,4.814087840935393
301,4.700392882372944
302,4.778022233759607
303,4.846566238315589
304,4.876950982154612
305,4.8982466928640545
306,4.9012635377931755
307,4.912543171578634
308,4.950451841564832
309,4.999486358030782
310,5.062189195595585
311,5.117680409581522
312,5.1355550385832505
313,5.102044611240499
314,5.048953991435565
315,5.0168851774170555
316,5.008739656147147
317,5.014188426437644
318,5.011232968820903
319,4.989307142876407
320,4.959354412870646
321,4.92731871302501
322,4.908183544016875
323,4.881479745904118
324,4.876263689687912
325,4.876580384974252
326,4.8992258096406065
327,4.896201683303621
328,4.9283256497054255
329,4.979869255670324
330,4.967635152281649
331,4.981747078982912
332,4.995993443568773
333,4.9863555013901655
334,4.951811699827006
335,4.917480632340094
336,4.907389321017019
337,4.900942283304162
338,4.901845375538361
339,4.89300560783633
340,4.883337994424908
341,4.865644842841449
342,4.85998451261239
343,4.856321561398568
344,4.869956369203312
345,4.87114166092004
346,4.871626405809097
347,4.869850052689222
348,4.876690200215993
349,4.886962567109555
350,4.9703187105793445
351,5.135724281727875
352,5.286194528306358
353,5.293793782417418
354,5.033758296873789
355,4.803458722505863
356,4.692214754298156
357,4.767709234940615
358,4.837046780254731
359,4.867059899065968
360,4.887193146872958
361,4.889434008282904
362,4.901356907074644
363,4.94128651169531
364,4.989847456449268
365,5.053253090215989
366,5.108042070514316
367,5.125252201679769
368,5.09158695966861
369,5.039953184898784
370,5.006848657221166
371,4.998502442232302
372,5.0026303025464935
373,4.99964476894628
374,4.979436806342971
375,4.950331357113386
376,4.916492017138534
377,4.897531414212858
378,4.873988280135837
379,4.866096425073464
380,4.857182407085351
381,4.896049226288874
382,4.933033168743456
383,4.928610759285698
384,5.047703590448932
385,5.036935931551657
386,5.053347680791787
387,5.0672024269530915
388,5.055608255057373
389,5.020604187427578
390,4.983417064407885
391,4.975770460507395
392,4.969436948371309
393,4.972010158087271
394,4.958546047734787
395,4.952776989941204
396,4.931451456764113
397,4.928800988806025
398,4.923742722816006
399,4.936863492040234
400,4.939154440466554
401,4.9391106869204435
402,4.937588712701141
403,4.945692062977756
404,4.956487476628214
405,5.041034698423655
406,5.2065294707870695
407,5.359014741915141
408,5.368302055550236
409,5.102643507133485
410,4.870898840142024
411,4.7581347261932665
412,4.833748975377242
413,4.904750726385801
414,4.935826114063368
415,4.955596358543682
416,4.960158710676174
417,4.970029734074546
418,5.0120541875938684
419,5.059980173285785
420,5.124902981575142
421,5.176445300365109
422,5.197586665631339
423,5.1629976804491
424,5.111621936701053
425,5.077141739571817
426,5.066846365595557
427,5.072943939183444
428,5.070609788081244
429,5.050130712255536
430,5.018233196298731
431,4.985189922981519
432,4.966480301495313
433,4.940599261641186
434,4.9342355873103765
435,4.937413110106226
436,4.939120426704074
437,4.943776666586315
438,4.945658967534217
439,4.952434596880769
440,4.951680401924998
441,4.969277070169504
442,4.981558896908461
443,4.973055080545988
444,4.936138381061374
445,4.9019818119105025
446,4.891869501730979
447,4.886972835359293
448,4.887619509224246
449,4.8760099080932
450,4.869083918858563
451,4.850952863839615
452,4.845470088440866
453,4.8423777278800975
454,4.855241227534524
455,4.856175516912922
456,4.85625957951595
457,4.857712599240719
458,4.861024339782552
459,4.8716690606589035
460,4.956547411813264
461,5.119409564124188
462,5.270169609671318
463,5.027156528768571
464,4.9034361224524785
465,4.867573799696459
466,4.847087016520306
467,5.013996558070204
468,4.858121123916677
469,4.973810287330198
470,4.873229111153295
471,4.877006113305862
472,4.887588080332626
473,4.9267655982570275
474,4.976510363439137
475,5.037693326354544
476,5.091327163635847
477,5.1105592697578635
478,5.07639517995997
479,5.023619987288568
480,4.993104544185629
481,4.982695869501424
482,4.988879011953921
483,4.984503639561381
484,4.965220664738689
485,4.935896170986484
486,4.902948156568313
487,4.882300890845258
488,4.8588116177713045
489,4.850744109631996
490,4.860810165828767
491,4.906480773408971
492,4.905934857859713
493,4.911451064610829
494,4.947166459228946
495,4.97707372060653
496,4.9950739163576054
497,5.00798630230411
498,4.996755488400934
499,4.963128581077856
500,4.925879230905411
501,4.91861793447164
502,4.908330192541755
503,4.914967992428728
504,4.902210200805653
505,4.8935834151172966
506,4.873967822059913
507,4.867291390661093
508,4.864611625516348
509,4.880282780013617
510,4.88142249291934
511,4.882886051795439
512,4.881504099405668
513,4.885868860837202
514,4.8981169518206515
515,4.981769040112788
516,5.144933831831667
517,5.297664657482607
518,5.304642488308308
519,5.041680805401624
520,4.815242768864029
521,4.700223381926319
522,4.777164804898874
523,4.847630586861421
524,4.875437995148527
525,4.896648297242377
526,4.901772456845328
527,4.913218228635885
528,4.952682841835787
529,4.999098003905595
530,5.062007033516993
531,5.11799391050099
532,5.135966899552908
533,5.101085806856739
534,5.0484328711802195
535,5.019622277747605
536,5.006058780517217
537,5.012442572632712
538,5.011375733103292
539,4.987623979675895
540,4.959477372312913
541,4.927785292733298
542,4.909417835472443
543,4.881397277742804
544,4.87812167090678
545,4.879556988449032
546,4.898215910141027
547,4.894636253065237
548,4.9300960027735155
549,4.980341790138964
550,4.968064814964938
551,4.984587488596661
552,4.9953830118632165
553,4.988400473480453
554,4.952095158036356
555,4.917361653735784
556,4.907482150401771
557,4.900036310700807
558,4.90300745314946
559,4.891098101380907
560,4.885394929715884
561,4.8658137299403235
562,4.85792716591203
563,4.853789718047618
564,4.869812785005163
565,4.872705635590645
566,4.873602517001564
567,4.870500393756396
568,4.878085765424743
569,4.886799816699476
570,4.9728009780481965
571,5.135664758193162
572,5.285476477086531
573,5.292808144520116
574,5.032518272879401
575,4.806278154011341
576,4.69261163950623
577,4.767703937218278
578,4.837784151195813
579,4.8655872393938635
580,4.889354944858119
581,4.890343469115684
582,4.898607518450006
583,4.942177828194044
584,4.989108309281566
585,5.052186237230215
586,5.107625632291966
587,5.12712214200148
588,5.093639815134115
589,5.037917257864713
590,5.009024881088277
591,4.997645290330177
592,5.002453262658076
593,5.000633295492862
594,4.979337928658209
595,4.950620674005246
596,4.917188891148201
597,4.896717729054517
598,4.872485089777903
599,4.865311058587616
600,4.854407162848935
601,4.896176868833931
602,4.934333303897495
603,4.926632052402197
604,5.04813006036343
605,5.03627803083173
606,5.053600215954028
607,5.066151039092543
608,5.055494475609785
609,5.020526659859319
610,4.983228823370176
611,4.975097693872168
612,4.96932995169711
613,4.97097183526289
614,4.961237549775851
615,4.952863742084874
616,4.931606123072185
617,4.928395892505194
618,4.923420348009905
619,4.937473353631771
620,4.939132673933079
621,4.9394034942601115
622,4.93911670727012
623,4.94452481221691
624,4.957026131955969
625,5.0395295859482525
626,5.207116661779067
627,5.359938570407327
628,5.366812017259619
629,5.101417466488585
630,4.871184432753358
631,4.759818853999413
632,4.833517247351208
633,4.907204824759604
634,4.933806960509425
635,4.9574008979705795
636,4.958226466192928
637,4.970852809133806
638,5.009141025920275
639,5.05986895899473
640,5.1236272237784934
641,5.178891221611967
642,5.196237555424878
643,5.163010718401921
644,5.1109297806749225
645,5.077686950615479
646,5.069827666385694
647,5.074053879874697
648,5.069470415213327
649,5.047915689523998
650,5.0193598339194185
651,4.9878269874484245
652,4.966153069931884
653,4.940387347828816
654,4.935747835079082
655,4.937752170287786
656,4.939617001369046
657,4.945827053340757
658,4.947484292051314
659,4.953776772567281
660,4.9510218692007095
661,4.967071641758337
662,4.9816508675070725
663,4.97174624312598
664,4.935749761121833
665,4.902490193041964
666,4.892801072019514
667,4.885461059929184
668,4.8897033905793705
669,4.875567501945584
670,4.868727747423734
671,4.850180001753006
672,4.84435090461055
673,4.841528044749018
674,4.8539675816704255
675,4.857088356237508
676,4.856693404038961
677,4.856934520411382
678,4.860487949072386
679,4.871844306092661
680,4.957096819801038
681,5.120154728411552
682,5.270629289731981
683,5.279569582239824
684,5.01495434245616
685,4.789689442128812
686,4.677571555656522
687,4.753077675209915
688,4.824664386416746
689,4.852782323209343
690,4.873812742752111
691,4.876289975674616
692,4.887637599234284
693,4.926478757984226
694,4.975607140225922
695,5.038931248676987
696,5.092684094805069
697,5.111536736477728
698,5.077412492184965
699,5.025855363172033
700,4.994585915609389
701,4.983622771702616
702,4.988170027928984
703,4.983681245199164
704,4.963378804975435
705,4.933685264883576
706,4.9036006899900215
707,4.883325169535029
708,4.85900531566513
709,4.851938611478476
710,4.859792120357831
711,4.905742896023471
712,4.907975131609718
713,4.909144297407545
714,4.947312864994737
715,4.976157786903138
716,4.992392651176325
717,5.007280917074218
718,4.995602044576847
719,4.962670827938541
720,4.92591027415732
721,4.917753798496064
722,4.911392297722902
723,4.911476369824479
724,4.903587115317824
725,4.892728241522201
726,4.875150272854522
727,4.869045469351405
728,4.867192301766321
729,4.8805826728202675
730,4.88142075851253
731,4.881324101222562
732,4.880578910436919
733,4.88536995482163
734,4.897119428552159
735,4.980637029273945
736,5.1446771974524825
737,5.295606659425324
738,5.305107093665616
739,5.041917036081685
740,4.812356516034943
741,4.701948059622944
742,4.776838585608644
743,4.846005029674346
744,4.8755476600204615
745,4.895999242143521
746,4.899250678370123
747,4.910534490405902
748,4.951943207350004
749,5.001584524275822
750,5.0620634245843545
751,5.117948974155564
752,5.136137371022287
753,5.103180596859287
754,5.049117817746791
755,5.019544873198452
756,5.009148619227947
757,5.014609271202518
758,5.009125168722512
759,4.989186296366239
760,4.960074902691451
761,4.928493439084723
762,4.908769811422059
763,4.881917538767816
764,4.875519650455443
765,4.876380608153472
766,4.897650750020442
767,4.8946469364762155
768,4.929806957443149
769,4.980306072785653
770,4.9673418410118835
771,4.9825264146158235
772,4.995181236842536
773,4.987630147360706
774,4.9510850952869285
775,4.917632277229947
776,4.907335466851265
777,4.90130528634918
778,4.90214444912148
779,4.891540350683262
780,4.88450702124383
781,4.865978295576329
782,4.858160118133201
783,4.856641334465153
784,4.869878323140361
785,4.871471575533093
786,4.872221512328233
787,4.871843831648862
788,4.87552068354371
789,4.8887753304401595
790,4.972915922979666
791,5.136755432082338
792,5.28646605095006
793,5.294156621926881
794,5.030644579520092
795,4.803545222147161
796,4.692034664388561
797,4.767542857413229
798,4.838606131655861
799,4.8654674319095585
800,4.889007733145814
801,4.891691352750043
802,4.900607763656348
803,4.942782277434909
804,4.990847553384983
805,5.052969847611441
806,5.106495416146364
807,5.125402260059122
808,5.092666706112748
809,5.0388799091106895
810,5.007772994710531
811,4.998105746978163
812,5.0038673976468235
813,4.999935019232627
814,4.981540263495046
815,4.949407298227377
816,4.918570326321849
817,4.896954343933995
818,4.874906508538252
819,4.867028870829444
820,4.853699256891699
821,4.896223964372922
822,4.933267717472037
823,4.929148844526706
824,5.046410994361028
825,5.038102039541181
826,5.053036234856985
827,5.067595084280578
828,5.057261825051432
829,5.021273695893607
830,4.986931083210892
831,4.976778377269728
832,4.971847864371917
833,4.973395563530015
834,4.959612598141525
835,4.95283252762065
836,4.93218631303343
837,4.92632322225839
838,4.9240830143590335
839,4.938875082005666
840,4.939585280964098
841,4.939444290094564
842,4.939024453481494
843,4.945276940163572
844,4.956186067821208
845,5.0389990999125285
846,5.206862453939485
847,5.35901959696748
848,5.367323103134928
849,5.10242170827023
850,4.869624366213608
851,4.755985749570291
852,4.834874545285457
853,4.9052500949869255
854,4.935464789159622
855,4.9557460799174216
856,4.959745173527823
857,4.969667300268899
858,5.00974933335523
859,5.058564659618732
860,5.124619128922396
861,5.177641011053069
862,5.196303032869305
863,5.163831162637946
864,5.108610401992409
865,5.078265265487373
866,5.067373968554652
867,5.075531394681543
868,5.0715863374789185
869,5.049256953266996
870,5.017960544828594
871,4.986983889900941
872,4.9661932680844565
873,4.940397127976926
874,4.934791162515883
875,4.936691968341517
876,4.940882236621782
877,4.944171278545299
878,4.944804968910309
879,4.951135673038088
880,4.952457409061313
881,4.968059513484182
882,4.980799415209603
883,4.971518713721947
884,4.937978737885439
885,4.901570174734258
886,4.892526143035984
887,4.886869789444164
888,4.886172710407021
889,4.876138753307262
890,4.8700958744786815
891,4.84857711170205
892,4.844037829488343
893,4.840672000032677
894,4.854972267381228
895,4.854769952270135
896,4.859098418093174
897,4.856707529757056
898,4.861406457627158
899,4.872035234510835
900,4.9568450920934515
901,5.119826341793296
902,5.270161130710429
903,5.277989789327777
904,5.016457829408012
905,4.78937504398276
906,4.67877689643877
907,4.750810524474641
908,4.823331157312211
909,4.85088771420595
910,4.873757922576688
911,4.876775001597478
912,4.88642415313741
913,4.926032651976573
914,4.976185829316875
915,5.0388180112419025
916,5.0916563251427185
917,5.110903151532874
918,5.075362681815368
919,5.025483234806196
920,4.992724574330701
921,4.9840025265093715
922,4.989099092834045
923,4.984206677390009
924,4.965664351213052
925,4.934993019837869
926,4.902881227131379
927,4.881682999593224
928,4.85958907121452
929,4.851378341164114
930,4.858132407546407
931,4.906985729643875
932,4.905664098732394
933,4.9099792305559395
934,4.945765954260345
935,4.977103385949284
936,4.992856406366003
937,5.007337524344456
938,4.996749702754159
939,4.960966136115047
940,4.927138014632861
941,4.917288757714648
942,4.910628694561756
943,4.913572877081959
944,4.900698776281901
945,4.895756983806909
946,4.874699366324476
947,4.869932029937166
948,4.865912044944268
949,4.879447585794324
950,4.882884751125159
951,4.881242861430255
952,4.882544004501158
953,4.885429837758326
954,4.895309277734943
955,4.981311784290956
956,5.1457832723480585
957,5.294931696238224
958,5.3074190503678595
959,5.041637231033302
960,4.8134887475400445
961,4.702585767320246
962,4.778225852155391
963,4.846960149119495
964,4.876187594159818
965,4.897181492501782
966,4.901897536859659
967,4.911006036395963
968,4.951654276891961
969,4.9995501422713255
970,5.062327383193227
971,5.117225491807463
972,5.133995360119406
973,5.102550225727894
974,5.051798662846444
975,5.016620149920087
976,5.007425882481935
977,5.013514758365296
978,5.009315558406113
979,4.990897703656664
980,4.960109069135773
981,4.927123579011773
982,4.907774168165845
983,4.882268134693464
984,4.876022065942083
985,4.87710700532641
986,4.898742469408566
987,4.895689042721837
988,4.929946405884249
989,4.9800872908604115
990,4.967041796916942
991,4.982952406282251
992,4.995535158395986
993,4.987035650156507
994,4.950340476639539
995,4.916456780431025
996,4.907866111378589
997,4.902687245323229
998,4.903394046115814
999,4.891746239032483
1000,4.884104008740653
1001,4.865982578278194
1002,4.858770630864964
1003,4.85544423913387
1004,4.868759376611109
1005,4.870271475516687
1006,4.870221994413975
1007,4.870262612414761
1008,4.876437705015736
1009,4.886986112393561
1010,4.972394767862932
1011,5.134569015334746
1012,5.28528319458237
1013,5.293683642141624
1014,5.033431916067051
1015,4.803532246075442
1016,4.691962939416051
1017,4.768353907485808
1018,4.839080410528619
1019,4.867512789059197
1020,4.887979771774495
1021,4.891889831178505
1022,4.903119630562402
1023,4.942320872416895
1024,4.989246217108187
1025,5.054609165184289
1026,5.104942447655895
1027,5.12433382186836
1028,5.091829800413487
1029,5.0389492260474515
1030,5.008486405862393
1031,4.999033434701011
1032,5.004007451492134
1033,4.99956695101702
1034,4.979214355710999
1035,4.948075979624445
1036,4.918839082796991
1037,4.897616955208086
1038,4.874335057709003
1039,4.865984295026865
1040,4.853406674636106
1041,4.895564710484292
1042,4.934775673730341
1043,4.927458588930145
1044,5.046341638229918
1045,5.035241536932341
1046,5.052057200422251
1047,5.065924916324018
1048,5.058434873506932
1049,5.020549355011179
1050,4.983837720168164
1051,4.976613318426153
1052,4.967972535981231
1053,4.970684895426955
1054,4.960429184165857
1055,4.9528956159801245
1056,4.9332475721518865
1057,4.925588828464408
1058,4.924064123220048
1059,4.937612922894766
1060,4.937938314853211
1061,4.937762872043104
1062,4.938646098378967
1063,4.944950492919206
1064,4.956248943064381
1065,5.0407197079664865
1066,5.208950430426239
1067,5.361255218726577
1068,5.074091997957471
1069,4.9245714732536845
1070,5.090161072607855
1071,5.095894355877191
1072,5.048505603868699
1073,4.904289555016457
1074,4.934696565979247
1075,4.956075940578311
1076,4.959811662826367
1077,4.971060341773775
1078,5.008719596888994
1079,5.059219811386482
1080,5.1247078524289185
1081,5.17919577906692
1082,5.19739610648669
1083,5.162763111047468
1084,5.110693944308175
1085,5.078807746553233
1086,5.069402544731637
1087,5.07364791791099
1088,5.071598990862092
1089,5.048331448225321
1090,5.01848441831896
1091,4.9872471221013095
1092,4.965727665067762
1093,4.941216374332695
1094,4.934560259063947
1095,4.937044982971086
1096,4.937024679905238
1097,4.943615393903955
1098,4.9457241314834715
1099,4.9517098380309
1100,4.953048445212971
1101,4.968202543721125
1102,4.983155861212747
1103,4.972789403800717
1104,4.937944879471009
1105,4.902353504319272
1106,4.892819735244646
1107,4.8856628399725075
1108,4.8881821093489854
1109,4.8767082116337805
1110,4.869736676857415
1111,4.851724835024741
1112,4.8449057817918275
1113,4.841705643537489
1114,4.855638670877653
1115,4.856178686875812
1116,4.85625363392382
1117,4.856921222282038
1118,4.862885325755963
1119,4.872945339593671
1120,4.956051328500963
1121,5.121398805980533
1122,5.271212979551253
1123,4.878484037754668
1124,4.878035129084937
1125,4.91685036646138
1126,4.966515469067475
1127,4.8300225841797815
1128,4.862814915701959
1129,4.85249403694899
1130,4.902907482161818
1131,4.947206293460834
1132,4.988929760756967
1133,4.928075770642046
1134,4.975320311603965
1135,5.038037384647541
1136,5.091505283429518
1137,5.1111763900282785
1138,5.0782103455750445
1139,5.025550604589207
1140,4.99346992868191
1141,4.983986214858406
1142,4.988086594514678
1143,4.98367079310318
1144,4.964616906736784
1145,4.933823253225239
1146,4.903953228019799
1147,4.883514104347983
1148,4.858879097670467
1149,4.852447778615478
1150,4.861949072941796
1151,4.904490658315768
1152,4.90817549941324
1153,4.908120269440983
1154,4.947925189133721
1155,4.977616003562857
1156,4.993614150740147
1157,5.0074273272380205
1158,4.995991119797504
1159,4.961767952415787
1160,4.926861898238366
1161,4.917543443278266
1162,4.9126937962733335
1163,4.912227922341045
1164,4.900765038502728
1165,4.894074355596775
1166,4.874345936283516
1167,4.867792683707238
1168,4.865177796594674
1169,4.880483547264223
1170,4.881402676633947
1171,4.882430266693725
1172,4.881038590008701
1173,4.886432165628242
1174,4.896699766354317
1175,4.981126032935177
1176,5.145035904159459
1177,5.296260716137396
1178,5.3051336579750865
1179,5.041945086210535
1180,4.813960398998781
1181,4.701377869734478
1182,4.777282701160667
1183,4.847110269032613
1184,4.876547654682561
1185,4.896978178579461
1186,4.9028229676921455
1187,4.910797076000911
1188,4.953244680103743
1189,5.001093015750666
1190,5.06529918237791
1191,5.115873069564742
1192,5.1372186972097635
1193,5.101454457652245
1194,5.049393691141475
1195,5.017621640888193
1196,5.009611758710671
1197,5.0124801088090285
1198,5.009519989241596
1199,4.989764348009471
